time,SOC,ta,current,voltage,speed
0.0,100.0,0.0,-1.0,4.20952812387227,17.329907021001315
0.1,99.99809923056067,0.5435909672262155,3.176471986459323,4.204566632989443,12.10765692132133
0.2,99.99469652383456,1.0871016234510213,4.483506500129325,4.198305921156766,14.910238772342288
0.3,99.98996971700419,1.6309881512451978,6.183646217494664,4.190710650842807,15.750082047392207
0.4,99.98402944176202,2.1744203122019674,7.2774092963287815,4.182287925741802,16.695297269001852
0.5,99.97695821986248,2.7174298161230137,8.752577511877744,4.173097113366081,12.803609224401352
0.6,99.96882349463753,3.2590309884242687,8.596470370010593,4.16365329371268,13.984599226660729
0.7000000000000001,99.9595237486475,3.800994268500162,10.741064419345838,4.153211651379958,17.265999852017362
0.8,99.9487126480576,4.343628957253803,12.49941157658539,4.141786692656896,15.789200617623864
0.9,99.9365969107915,4.885914534298237,13.288756115868146,4.1299025272598255,15.079769705691593
1.0,99.9238439618875,5.424980961338953,12.058543259554556,4.118769658463866,14.745114249209017
1.1,99.90999179349599,5.965252088995527,16.60321199414551,4.106446402458632,14.474638987866976
1.2,99.89562543866403,6.500138055756729,14.13073655712333,4.095868326042279,15.877410195721662
1.3,99.88056249101037,7.033962074079543,15.117539576895506,4.084965318759852,13.48060670297237
1.4000000000000001,99.86417866167804,7.568697855996778,18.679971561687736,4.072934062621772,13.195938837543585
1.5,99.84676783099901,8.1014161131485,19.507954232085098,4.061117925096551,16.052325006715044
1.6,99.82886992897258,8.630695171030375,19.266031565353696,4.050175534043617,12.978652366895323
1.7,99.8093028231859,9.161945608288148,21.095198390108465,4.037594912261179,14.668153090308651
1.8,99.78896203263497,9.69146201996125,23.90027912667383,4.025176229024893,13.31117124359287
1.9000000000000001,99.76797406970843,10.217868176933404,24.91336532180916,4.013446678547921,17.97504860530265
2.0,99.74643058708551,10.741747944404949,26.787392986088957,4.002077868923121,13.594662403157473
2.1,99.72308827127904,11.267190141022066,28.415390523964675,3.9893161124447802,11.137732627768589
2.2,99.69851696891824,11.791237001684435,27.254498604906733,3.9765863792045186,18.094353180944655
2.3000000000000003,99.67433115103555,12.308506652580819,24.447192940723983,3.9661876166978796,16.799767147092265
2.4,99.6491378803818,12.827167196316678,29.288132150967762,3.954190261138398,13.810951984321065
2.5,99.62419331226752,13.336594114750687,23.42318141003223,3.945623317256282,15.793454107454586
2.6,99.59869130551157,13.846889888921387,28.246689423453844,3.9354546215684802,15.502156278221719
2.7,99.5728314696698,14.35314433755784,31.266964802328783,3.9261994497362527,16.937984352314984
2.8000000000000003,99.54700581284614,14.855329045111837,36.223992181637904,3.917527240857021,18.04936106341555
2.9,99.52022074076375,15.353787838966449,33.55199440595219,3.909489196184487,11.202443638208305
3.0,99.49260393094801,15.849049072151594,26.1466634631485,3.901814348614437,15.836937018147697
3.1,99.46518179436346,16.342456319874124,29.23835024848472,3.8936936739235533,14.681104435113138
3.2,99.4370850590774,16.83362982396301,31.945643516067594,3.8852710888655184,12.546995317883404
3.3000000000000003,99.40955743831712,17.316310420871613,28.43942566100581,3.879510570670449,14.204172290465968
3.4,99.38268471874781,17.79391679444965,29.74816294696045,3.87454362732649,12.22055659348498
3.5,99.35601651054733,18.266832438658337,32.10140748205703,3.8702343037862295,14.463428442507604
3.6,99.3294713044363,18.734990181195037,34.00924028400013,3.866325665912168,17.677628734292806
3.7,99.30142508476835,19.201452486857175,27.454100437481866,3.8616073032125517,15.279720745127356
3.8000000000000003,99.27776082398076,19.651250965702904,29.15423924178682,3.8625566820682105,14.465083000062073
3.9,99.25408900003049,20.09599993010898,27.24587644116988,3.8636185602306004,15.37349347413715
4.0,99.23004533411314,20.537382057708992,22.840887571440955,3.8640145340276373,15.299992136652216
4.1,99.20764496295998,20.97091922806885,23.460268134799502,3.8657578082363253,12.242186215320208
4.2,99.18551090862587,21.39949655392052,23.177283478429207,3.867488858007103,14.866808062824884
4.3,99.16183564593926,21.830541416288874,25.471058077960617,3.865993480094059,16.130478806619248
4.4,99.13915106263241,22.254925523169977,29.468014242294768,3.8656103320285133,15.78736489714576
4.5,99.11478235149376,22.680109803212325,29.430098048478513,3.8631447337470246,13.97197487941041
4.6000000000000005,99.09246383390642,23.091107496406167,18.992849088954756,3.8652766397900313,14.544296033340737
4.7,99.07078481632203,23.501457064842576,24.381312973604448,3.865409920469348,11.826166653726942
4.8,99.04738058403211,23.911149286356274,20.247345033420768,3.864035906965235,14.217921042157874
4.9,99.02860601146782,24.304514288031697,26.14675301906187,3.8677484891385165,17.08471958130546
5.0,99.00753372340824,24.7004409917795,25.91932963988101,3.8683565825125945,15.838840493332688
5.1000000000000005,98.98734138218711,25.088719063846632,22.940752760472943,3.8703019563151644,13.98772444030296
5.2,98.9703608356963,25.460979564745674,15.139842579226707,3.877055043410136,13.653474020183715
5.3,98.95577038057148,25.82346812765593,12.573136692411955,3.885417110372536,15.40535935182028
5.4,98.94110455213333,26.18639239369819,19.959978755675234,3.890835060528156,17.816149842833468
5.5,98.92872387052532,26.532829699216155,10.494336628370446,3.9009091272996583,13.632737746293877
5.6000000000000005,98.91937052819935,26.869194142629453,11.650610143217218,3.9123645058919143,14.597313122184374
5.7,98.9090307810071,27.20695302607399,15.043073214830967,3.9201133118369524,14.641806712177177
5.8,98.9020116083545,27.52316447813161,-2.9854099862853625,3.934530377743482,17.354339063119053
5.9,98.89711723660326,27.83493149699132,-3.6182326584279663,3.9472632896100706,13.85198940982531
6.0,98.89659315310729,28.1289769911466,-2.934899884664796,3.964312273851215,18.324624292074002
6.1000000000000005,98.89432147124802,28.42944722636982,4.509426815352,3.975390864373188,13.079077963873996
6.2,98.8887194154728,28.73753050568521,6.873067101657168,3.9804434895874232,15.855893780733888
6.3,98.88446393644186,29.03750712295212,7.384780375691403,3.986961233860323,15.523686119929705
6.4,98.87906089677914,29.337395779580948,3.1817721225821725,3.991530106453118,13.0541072384141
6.5,98.87196294006696,29.643796480660384,8.227915383009528,3.991579564093338,14.378182536751305
6.6000000000000005,98.86260579313131,29.955872731697198,14.133422288335412,3.988063164930939,14.309732052462184
6.7,98.85036573144093,30.274679031189518,17.589294772692377,3.980950390888961,14.44886217223408
6.8,98.83957434866754,30.582246378102834,11.33075514396988,3.97822267923721,20.360235434947313
6.9,98.8272538185722,30.89460766358068,11.382987518630172,3.9727261900970063,10.862867358003445
7.0,98.81519957165892,31.205564294818267,18.46577196132262,3.9672045447765267,16.220291097697242
7.1000000000000005,98.80079568622466,31.516822623926465,10.211252340982671,3.9610669397079055,15.526962276064236
7.2,98.7905032090599,31.816254495892704,18.828891801134706,3.959359200159846,14.73872469185299
7.3,98.77919163839847,32.11493776461369,22.066371136519503,3.9569068657930444,13.462934671078687
7.4,98.7668626419868,32.40827455459918,6.0533230664708935,3.955894849135175,14.342176161771695
7.5,98.75745553114463,32.69432661602988,7.317761894018085,3.9569621125734176,16.396247253904853
7.6000000000000005,98.74508072614249,32.990024056428,13.387611800679434,3.9525875094404483,12.6816792765424
7.7,98.73542164677693,33.2718677399065,14.40661510938164,3.9531739847391862,12.390538091391072
7.8,98.72462217520285,33.554560076316235,13.207440101144147,3.952256817936512,15.251177936790455
7.9,98.71421448202597,33.83141415336885,6.061631966401516,3.952890381680012,12.574950748533285
8.0,98.70705828365081,34.09759632408822,8.76837626922759,3.956588994537145,12.051473460572378
8.1,98.69996640756521,34.360353922907635,8.061837322562399,3.960271454712984,17.390834950607935
8.2,98.68829961279899,34.64197568727851,22.196838641865156,3.95435164778461,20.91017713216639
8.3,98.6750326575864,34.91761780510485,8.65436478458749,3.9508355246068247,10.934313317592318
8.4,98.66289300013058,35.195325431027335,20.96404359408786,3.9455774097667775,12.344606897610548
8.5,98.64876190715307,35.472025680057776,16.40650563456064,3.9405274599982545,15.192120213774393
8.6,98.63247195743304,35.75444789103575,13.706978183623017,3.9327346336902838,11.654479199829323
8.700000000000001,98.620541324691,36.02038424743839,15.226880157571676,3.93139199672081,14.146949554352753
8.8,98.608013885635,36.28633149159083,17.568443567049577,3.9291931244764915,16.501206403224995
8.9,98.59056865265342,36.56984600978898,28.03448785962269,3.9189973956870627,13.247795387501487
9.0,98.57211742601952,36.846004576010806,13.183790895563495,3.912257045947447,15.032528103308394
9.1,98.5571042244299,37.11277071424759,14.736845198152313,3.9091307391478787,16.32012342332797
9.200000000000001,98.54036388412891,37.382962445370985,15.426155706062564,3.9037934558339042,18.710096307517567
9.3,98.52651636123537,37.638033051432146,8.138932661484414,3.904326065146972,11.628498199506486
9.4,98.51041510106937,37.905104500837275,20.44314744241813,3.898720611945718,18.19804278039983
9.5,98.49532362881857,38.15941874487306,11.555820351662483,3.8980081169367957,17.265931944842833
9.6,98.48002000988211,38.41966881709769,25.615310518015697,3.893755415335332,14.515226796332358
9.700000000000001,98.46598262481938,38.66463135186555,13.18276440076304,3.8953454143247055,16.672111084844776
9.8,98.45314216656814,38.9097369386637,20.60609953997289,3.8954728993905214,17.233150224418722
9.9,98.43810308770044,39.1568687700912,17.25820817185482,3.8938696327343836,12.707097220767032
10.0,98.42505210302132,39.39555863449848,15.91157891113416,3.8948295382438785,14.626705945257168
10.1,98.41064074822685,39.636783637475126,13.782028145909743,3.8938625990295477,14.515468486965402
10.200000000000001,98.39718748217474,39.874599744756495,17.855581790499134,3.893138990194414,12.810687864667727
10.3,98.38148234916619,40.112342011192986,3.962019216676929,3.891770237203558,15.714399777093444
10.4,98.36601271631066,40.35562713562653,16.330699294551245,3.8872292609054915,13.684343369778967
10.5,98.34991038425977,40.59860943927291,27.604113375381406,3.8822532197761928,14.41062580996296
10.6,98.33075395912985,40.84412876914433,20.73299057319504,3.8761166476684425,10.42820430652643
10.700000000000001,98.31315840369703,41.083249904579574,17.739620370145865,3.8723314717012904,15.070312340913373
10.8,98.29323188493487,41.3311048914791,23.520059029891087,3.8644617810933304,15.704534076108851
10.9,98.27597098122715,41.56336290785186,16.598022174616105,3.8631200774993157,13.49413801199473
11.0,98.25806282919689,41.80200141320109,28.88609897169679,3.8580928925298794,14.210685479978148
11.1,98.23765977018236,42.04113261234381,24.094167211736455,3.85267115432196,13.349131065272369
11.200000000000001,98.22110751698767,42.26385627870598,16.229785489955507,3.8535957241459045,16.731387602515383
11.3,98.20618983735517,42.47997714173427,11.239375730751888,3.8559702052800877,11.616916090690962
11.4,98.19446054211544,42.68556936435256,13.594914111721357,3.8613915195315403,15.418104388476532
11.5,98.1824337625505,42.887763404631485,7.555055025620236,3.8666304355848613,18.226763919684892
11.6,98.17451241285401,43.07524474497576,5.174567336058405,3.8760056638422973,13.086436659473732
11.700000000000001,98.168998570023,43.251635105580434,-0.7618878016544794,3.887793519837429,13.060086596602899
11.8,98.1680654178359,43.413341853964404,1.806563081449853,3.9028640153287912,15.344202388434942
11.9,98.16645150993567,43.574074087168235,-1.6464993725283201,3.915635092652844,16.068088836643255
12.0,98.1663737502206,43.732507235615564,8.484966708325958,3.9265444927670807,14.061285365321853
12.1,98.16673188303955,43.88005860327155,-5.891326334484253,3.93976810527139,14.303294022293302
12.200000000000001,98.17203052122242,44.01437453798293,-3.454266878350107,3.9555275583580456,11.968135910664252
12.3,98.17641554910355,44.14995904043519,-3.1974003288316943,3.9681946988967995,17.45767329933817
12.4,98.18250656140484,44.280908093557414,5.053911211378653,3.980221001772104,18.44593603572859
12.5,98.19020017489557,44.396414385726665,-12.425706641476406,3.996223374105283,13.16001783029538
12.6,98.19879633216254,44.51699679680451,-1.565174085954148,4.007396078516324,17.349327452081464
12.700000000000001,98.20749006631479,44.6301334927414,-8.602955391091081,4.019635962744814,18.491369270482213
12.8,98.21908361578917,44.732115605841805,-14.525849521824378,4.033964757553911,18.41477936724792
12.9,98.23056015842242,44.8357853840823,-13.60626516030406,4.045330278656111,10.786998282395993
13.0,98.24367255488538,44.93093694978985,-17.369112035512263,4.058033976108668,12.327734558887142
13.1,98.25313543112831,45.04235973683824,-11.305086505610316,4.062383770457501,13.597795362497614
13.200000000000001,98.26144582331666,45.15676173062671,-5.79104914203277,4.064623733174991,15.114509506224431
13.3,98.26450383043104,45.28877451208469,-1.6802797472520612,4.059421500026077,17.20395472704361
13.4,98.26862192107264,45.412503882823536,-7.227936815927054,4.0578961113454985,14.796730979770727
13.5,98.27086125512461,45.54479990341564,-4.348107255826308,4.052891795900383,19.64062197292247
13.6,98.26789349129622,45.695493776138505,0.5696178178414958,4.04105042042204,16.292793124102296
13.700000000000001,98.26688241466171,45.835640585015874,-0.7394969792024635,4.0346908749206225,11.129089244158953
13.8,98.26395865130509,45.982716854807876,1.678456890839612,4.025883450421703,14.958516765076594
13.9,98.25736825658583,46.1415067464136,3.6524237068156653,4.013357501569511,15.653020275579452
14.0,98.250802397204,46.29960188162132,8.249526732404975,4.002350536876029,14.074294311917052
14.1,98.24328364575679,46.45655696868159,4.866476087768951,3.992667821842497,15.651686950767857
14.200000000000001,98.24067156139252,46.59835070119081,12.8574219076476,3.989556840315739,14.77922594317928
14.3,98.23701129873777,46.73946699802587,11.197486456207567,3.9866977398128505,15.02973379773697
14.4,98.23202245083327,46.883228092554056,7.005313988082821,3.9829357054410264,17.56238692560227
14.5,98.22734181056506,47.02473233125607,3.0506363955263613,3.9799730796458053,12.592265318552451
14.6,98.22623825422089,47.15366914073083,3.391208773562091,3.98179436393639,15.125126898016138
14.700000000000001,98.2272682340595,47.275551919764986,8.783915371584001,3.9856377325528443,14.653360650299911
14.8,98.2281913776358,47.3901775224438,-5.62723817133037,3.99158322395355,16.64713312958188
14.9,98.23105684323065,47.50235307929597,-3.483766602723458,3.9970929441740353,11.671357474432373
15.0,98.23145664291256,47.618481168759104,-13.086720278243881,4.0000087665231145,15.512546421875781
15.1,98.23316628694573,47.73438919016936,-7.4977588217279845,4.002276666626271,14.720297132442042
15.200000000000001,98.2369579238684,47.84147706104812,-2.894240292622864,4.0072006265786415,14.85108828385504
15.3,98.23517642838637,47.96941266276738,7.124180760026114,4.002791002353775,14.122077743165384
15.4,98.23354705330122,48.092422388215695,7.387911093145868,4.000528343403234,14.930301718834682
15.5,98.23070952565305,48.217199096217485,3.202385083056698,3.9974414202307176,13.569306760850615
15.6,98.22463897267168,48.354387530701125,4.939976947089346,3.98950830941761,18.513372856202558
15.700000000000001,98.2207008313047,48.479713123463604,-2.311988449954973,3.987068883076447,17.04818764180352
15.8,98.21488735495738,48.617009070040005,9.753918627066117,3.979688846190469,15.800577463429862
15.9,98.20504822697865,48.764827064473984,13.905799758665669,3.9684090464393593,15.016245023616657
16.0,98.19763297193126,48.89855720904769,5.74831665529235,3.9639801839524256,12.806787664186102
16.1,98.1907288166509,49.03136270367211,4.852787467888732,3.9599393274699093,13.770602669538608
16.2,98.18452040985183,49.16199994019209,8.391985599164357,3.956725720848448,15.456346055857171
16.3,98.17885845614015,49.2889276527153,10.092579785751868,3.955066057362094,14.079487569856862
16.4,98.17518521274077,49.4054828290617,4.973278376275713,3.957181165193796,14.596171905460642
16.5,98.16898459404645,49.53485568798689,14.635085737707996,3.9533825055403415,18.77446675890928
16.6,98.16218393854716,49.658097846435616,2.633243090290173,3.9521801969292105,13.257808568465627
16.7,98.16034590648026,49.76802502465869,6.889040377844104,3.9558451835445494,12.801608951074648
16.8,98.15700736764951,49.87877047579155,0.31414574254558003,3.9582751124639883,14.559616563516284
16.9,98.15530730128846,49.98639183129242,4.85529198712363,3.961170825785486,14.093847584795988
17.0,98.15330053165864,50.08889557438597,-6.599100037646607,3.9654310883749586,14.815395806021256
17.1,98.15111312347035,50.19881209594726,4.828165984754233,3.965472425515961,14.527030096691844
17.2,98.14901378419486,50.305388164656684,10.043698608198179,3.9665637898316803,13.527993170620443
17.3,98.14822356601468,50.40122810968434,-0.3563336552376466,3.971427094239547,13.96445139885951
17.400000000000002,98.14625321933494,50.503111134187606,-2.6716219281846127,3.9727886099831657,15.929125334174438
17.5,98.14286114561953,50.611675385506445,2.582481946766643,3.97084099187243,17.611475430632886
17.6,98.14170912385553,50.713602631777064,14.711231787248568,3.9712496989434665,12.153739740164315
17.7,98.13817436601944,50.81436202335174,0.284396896630898,3.9718212512709883,11.667724753934507
17.8,98.13630230021111,50.910818198749034,-6.50433094969888,3.9737488292558014,15.691019276496517
17.900000000000002,98.13809300255973,50.99712986535862,-1.9866544233197385,3.978890031560054,15.966507403447729
18.0,98.13832190587226,51.0890355106296,4.862098635416724,3.9807315234440073,17.56415751518032
18.1,98.13864056232705,51.173499347933536,-6.707471330759465,3.984921232620229,15.788083745768066
18.2,98.14158570389013,51.251793417464036,-6.333097711059474,3.990626667411405,10.507862350650788
18.3,98.14394341748923,51.32957026866375,-11.7530591864722,3.995593651576837,12.81055385060642
18.400000000000002,98.14883771332383,51.40378328582418,1.4240363740364193,4.000687806204909,15.61213437833381
18.5,98.15287436525895,51.47393016816309,-5.005157004381851,4.006320283568797,13.722872168489058
18.6,98.16019616646773,51.53498414239695,-1.340645146184334,4.014536313010047,15.060692715353559
18.7,98.165470889019,51.59859673582445,-10.346934941763383,4.020575273115577,13.657808041819067
18.8,98.17270758042804,51.65664151640273,-13.133877128586887,4.027639723715263,17.635079833582378
18.900000000000002,98.17673455199748,51.728279778467794,-8.422637546271519,4.028090805412863,15.085461370056649
19.0,98.18544518748521,51.77963895034696,-11.879672376197389,4.036118668839588,12.370689685077139
19.1,98.19514691926578,51.82724846670198,-14.234938417585592,4.044527756381456,14.627172346675309
19.2,98.20353100641482,51.88184409910801,-8.650484152360026,4.048857725116009,16.436759576136975
19.3,98.21321181893431,51.92671318322844,-16.425133728549174,4.05637389943946,11.975775365634586
19.400000000000002,98.22357599391013,51.970736356203844,-17.9912486920509,4.063099766992436,16.86286848862016
19.5,98.23519648473146,52.011503770969156,-14.381344091237532,4.06988802805883,15.594817503154959
19.6,98.24623170788675,52.05459623984145,-8.996543118758018,4.074784394458367,15.815326915856
19.7,98.25617517328382,52.09727849317744,-15.414608294514494,4.079067147618768,16.498781268338345
19.8,98.27268816727359,52.12051926258232,-7.006394083203541,4.0901091085770345,11.396086684023057
19.900000000000002,98.28764598880942,52.14661998058188,-5.970773080066968,4.09855338733018,14.499830828730103
20.0,98.30040586532317,52.17789173490328,-12.54968873163261,4.10388564869882,14.275563354697434
20.1,98.31358339953454,52.212312946017654,-6.264396650117534,4.107362972702646,16.12951542854829
