time,SOC,ta,current,voltage,speed
0.0,100.0,0.0,-1.0,4.211209557496788,17.329907021001315
0.1,99.99807481849295,0.5421755325332174,2.3807550804896613,4.206698520548188,12.10765692132133
0.2,99.99529962927518,1.0813330419395832,2.854207346527486,4.201958306081912,14.910238772342288
0.3,99.99194117998252,1.617729245454479,3.5298716690097622,4.196911692337183,15.750082047392207
0.4,99.98806953593396,2.1509555512008376,3.8869868320868233,4.1917705052101395,16.695297269001852
0.5,99.98373545698657,2.6810630466442054,4.444481205350765,4.186520636007609,12.803609224401352
0.6,99.97897780500065,3.2075786083240034,4.156303993367452,4.181388496632916,13.984599226660729
0.7000000000000001,99.97373042140318,3.7314738839197332,5.069142594905885,4.175943727185348,17.265999852017362
0.8,99.96777672803478,4.252960766170426,5.785593947553009,4.170146467678905,15.789200617623864
0.9,99.9612368237819,4.771563672169047,6.006251925719323,4.164237708072772,15.079769705691593
1.0,99.95450937133043,5.285841332942755,5.190428213139542,4.158834326483241,14.745114249209017
1.1,99.94730734628445,5.798145183667424,7.353517135545984,4.152893193403205,14.474638987866976
1.2,99.93997135912196,6.305144679869404,5.972864349925787,4.147912963243815,15.877410195721662
1.3,99.93238677653926,6.809090025574012,6.340935743982165,4.142827157935551,13.48060670297237
1.4000000000000001,99.92418628798686,7.310987670762572,7.936603996166637,4.137220336686603,13.195938837543585
1.5,99.91553031721865,7.8094647914326,8.225854228627211,4.1317318880854605,16.052325006715044
1.6,99.90670176177142,8.303930461534293,8.030348852393745,4.126647087863686,12.978652366895323
1.7,99.89704860108208,8.796990160458616,8.812418092492544,4.1207686339038725,14.668153090308651
1.8,99.8870384537513,9.286984496959734,10.045553091904537,4.114913675817163,13.31117124359287
1.9000000000000001,99.87672786203137,9.7733273532156,10.466975587086694,4.10932402954794,17.97504860530265
2.0,99.86615281529936,10.256352507711282,11.287529086185558,4.1038397265114535,13.594662403157473
2.1,99.85462910282266,10.738068556818964,12.0361074066499,4.0976057208379375,11.137732627768589
2.2,99.8424307158269,11.21720907336814,11.53822611121353,4.091247998689882,18.094353180944655
2.3000000000000003,99.8304096214794,11.691294749352288,10.290311689268236,4.085856754873851,16.799767147092265
2.4,99.817819665195,12.164170053272386,12.528656099809135,4.079625883452026,13.810951984321065
2.5,99.80531572927357,12.630919732813,9.898251217482215,4.0748730811323695,15.793454107454586
2.6,99.79246904222936,13.09628734878177,12.144822617304007,4.069300979737018,15.502156278221719
2.7,99.77937018778839,13.558037924099763,13.580301725722029,4.06404477509755,16.937984352314984
2.8000000000000003,99.7662297665296,14.016157215999431,15.909143937304087,4.058994834553081,18.04936106341555
2.9,99.75250167407958,14.470864607861094,14.759135921335812,4.054141567502023,11.202443638208305
3.0,99.73824608166103,14.922443954122405,11.437792842615591,4.0493620742847325,15.836937018147697
3.1,99.72399883052069,15.371615568470757,12.964755543824586,4.044275972391274,14.681104435113138
3.2,99.70926124358837,15.81828808187876,14.339199865061264,4.038921810903251,12.546995317883404
3.3000000000000003,99.69472470358082,16.259391537243303,12.787240880266342,4.034755307615294,14.204172290465968
3.4,99.6804498587589,16.696555417939535,13.499673608294614,4.03092913584715,12.22055659348498
3.5,99.66619555931902,17.12996071356862,14.72056781555629,4.027387053526281,14.463428442507604
3.6,99.65191731603296,17.559566263071478,15.73801905544782,4.02403463032279,17.677628734292806
3.7,99.63669039008728,17.98692622123259,12.645582408295105,4.02024274663399,15.279720745127356
3.8000000000000003,99.62388674121559,18.40442993967734,13.553559985359954,4.019353634003105,14.465083000062073
3.9,99.61100208751046,18.81793835930895,12.694151815475166,4.018579683850004,15.37349347413715
4.0,99.59782418964421,19.22832118499721,10.592631487655202,4.017519921412486,15.299992136652216
4.1,99.58551937062725,19.6333104465337,10.979005092541389,4.017207049384775,12.242186215320208
4.2,99.57328022541823,20.03441745046832,10.92076213773496,4.016926395716728,14.866808062824884
4.3,99.56005488305776,20.435476038387243,12.137516216982158,4.015000954364312,16.130478806619248
4.4,99.54731725937607,20.83181335686281,14.200303015008071,4.013650344324166,15.78736489714576
4.5,99.53350835622888,21.227285842460056,14.266544227241008,4.011198549940344,13.97197487941041
4.6000000000000005,99.52080663263084,21.61417711289172,9.166590196096356,4.011120231286546,14.544296033340737
4.7,99.508390569264,21.99945382231306,11.92256979667413,4.010061824076806,11.826166653726942
4.8,99.4948788878687,22.383135729737127,9.94451508648184,4.008208635317547,14.217921042157874
4.9,99.48399275371818,22.75712392112512,12.957743190997187,4.009060492603891,17.08471958130546
5.0,99.47167887827992,23.131183187483558,12.921131443234223,4.0083055098506355,15.838840493332688
5.1000000000000005,99.45983175312261,23.499912981620923,11.444790896956901,4.008319924421378,13.98772444030296
5.2,99.44990459515012,23.858733197047535,7.4681502406773275,4.011068124784341,13.653474020183715
5.3,99.4414497353107,24.21081197821633,6.100764208122797,4.014933203013865,15.40535935182028
5.4,99.43300146230862,24.56154746426958,9.863170496463397,4.017457751017328,17.816149842833468
5.5,99.42600503585652,24.901887606596162,4.891280558798375,4.022727271132227,13.632737746293877
5.6000000000000005,99.42093647769913,25.235216114626073,5.4331791287352535,4.029028313578757,14.597313122184374
5.7,99.41532698555487,25.567745718336603,7.163481301956907,4.03353099164285,14.641806712177177
5.8,99.41185779484495,25.8869964654929,-2.466422086407976,4.041931625399619,17.354339063119053
5.9,99.40978508797735,26.20229431690844,-2.8960038771744405,4.049679178033358,13.85198940982531
6.0,99.4105388939174,26.50636601600363,-2.6091488267393825,4.0600883850730725,18.324624292074002
6.1000000000000005,99.41013745961315,26.813030329381498,1.5986964085783817,4.067139990371208,13.079077963873996
6.2,99.40739593066138,27.12335277282888,3.070032273843934,4.070533214177039,15.855893780733888
6.3,99.40526112848482,27.428737978424042,3.5347378102272353,4.074443101740877,15.523686119929705
6.4,99.40220468896123,27.73346807658277,1.5212435270104177,4.077026783261112,13.0541072384141
6.5,99.39792320843203,28.04096198914079,4.307084023022316,4.07693017749922,14.378182536751305
6.6000000000000005,99.39210477233402,28.350668823922636,7.483043581934885,4.074685231258003,14.309732052462184
6.7,99.38440813099263,28.663049751706907,9.358222149094756,4.070300647760026,14.44886217223408
6.8,99.37745745512161,28.96868628045666,6.275686959115369,4.068076934728952,20.360235434947313
6.9,99.36948136743541,29.275893069820388,6.404989375778549,4.064252833050227,10.862867358003445
7.0,99.361561248503,29.58141348031029,10.051310471917688,4.0603220579774995,16.220291097697242
7.1000000000000005,99.35218797701846,29.885994566996093,5.928849395322103,4.056002520739545,15.526962276064236
7.2,99.34523146213365,30.18327286605862,10.270514356656427,4.054073774342525,14.73872469185299
7.3,99.33766362110146,30.47894567844612,11.916378399431954,4.051826063257264,13.462934671078687
7.4,99.3294829600085,30.770650866412932,3.8479861865548077,4.050381727504331,14.342176161771695
7.5,99.3230304724041,31.057386515299864,4.489221556787774,4.050119922207635,16.396247253904853
7.6000000000000005,99.31480457445954,31.347930676430792,7.567394204222585,4.047041133471997,12.6816792765424
7.7,99.30819031433361,31.630114438401332,8.091249792649332,4.046651569401576,12.390538091391072
7.8,99.30088997646307,31.911570216319028,7.4894229245651855,4.0455118843081115,15.251177936790455
7.9,99.29381861710908,32.18883126414064,3.858284928134544,4.045231986546088,12.574950748533285
8.0,99.28869080136842,32.4593767586661,5.238027388000957,4.046691749136511,12.051473460572378
8.1,99.2835580428168,32.72716384871458,4.967025971638779,4.04816216023698,17.390834950607935
8.2,99.27560394971965,33.00384851799174,12.186737280534006,4.044470874708325,20.91017713216639
8.3,99.26661502877133,33.27657347939558,5.4411312591705006,4.04187913500365,10.934313317592318
8.4,99.25822138074096,33.54943162373576,11.665689529044394,4.03832531773258,12.344606897610548
8.5,99.24858631142315,33.82085425669387,9.444515758254642,4.034762771315027,15.192120213774393
8.6,99.23763008589646,34.09424640661036,8.160877693551532,4.029681380311773,11.654479199829323
8.700000000000001,99.22916143429325,34.35829931697461,8.959117471889737,4.027954274576888,14.146949554352753
8.8,99.22029296655604,34.62138498206098,10.150912791453537,4.02578431069674,16.501206403224995
8.9,99.20853513889357,34.89233818067162,15.321004070070012,4.019436744068255,13.247795387501487
9.0,99.1961524695515,35.15863415741757,8.09186627470818,4.014760893483771,15.032528103308394
9.1,99.1857193041216,35.41918311100731,8.85660008237131,4.011963134193503,16.32012342332797
9.200000000000001,99.17428373722942,35.68037550349161,9.199767930532543,4.008082426107364,18.710096307517567
9.3,99.16451435387862,35.9328639616647,5.611745556953831,4.007296175603211,11.628498199506486
9.4,99.15343713781175,36.19035280286767,11.67993608747473,4.00340014793737,18.19804278039983
9.5,99.14294161359939,36.44032538431741,7.288991765102846,4.002077284514326,17.265931944842833
9.6,99.13231996702191,36.69227144530542,14.260170921457972,3.998977634750248,14.515226796332358
9.700000000000001,99.12243641028789,36.935387995838816,8.089046138334492,3.998969303956725,16.672111084844776
9.8,99.11325650021642,37.177526517235904,11.780926176975491,3.9983099337841757,17.233150224418722
9.9,99.10279076761321,37.41967682002859,10.114786755050686,3.996769255395667,12.707097220767032
10.0,99.09349475523773,37.656480307441576,9.439404214195376,3.996641069764606,14.626705945257168
10.1,99.08338407078703,37.893652125688654,8.411755129753175,3.995497147304709,14.515468486965402
10.200000000000001,99.07379875498673,38.12819061851738,10.472491831600832,3.9945009769693183,12.810687864667727
10.3,99.06285993895418,38.36182185296511,3.6178268987439393,3.993111570458489,15.714399777093444
10.4,99.05202655144433,38.59738755432359,9.775759677782661,3.990048861747681,13.684343369778967
10.5,99.04079487567307,38.831908570299674,15.359139206054872,3.9867250820292908,14.41062580996296
10.6,99.02776143673591,39.06684879167014,11.999609740438721,3.9826990914325435,10.42820430652643
10.700000000000001,99.01560551339945,39.29767554474133,10.551786295268137,3.9798646682362504,15.070312340913373
10.8,99.0020780498593,39.532038743610606,13.413067586587548,3.974867002145969,15.704534076108851
10.9,98.99005992306643,39.75767598084857,10.041575042478716,3.973208135722041,13.49413801199473
11.0,98.97765175322778,39.9856257149219,16.06539261625261,3.9696912197743948,14.210685479978148
11.1,98.96380855081158,40.21288146053244,13.719160899878078,3.9659284469286376,13.349131065272369
11.200000000000001,98.95225843521449,40.43065471864315,9.736301795293318,3.965623575114022,16.731387602515383
11.3,98.94176307863661,40.64380194242853,7.0997548647466155,3.9663234949364465,11.616916090690962
11.4,98.93330305851192,40.85015890667275,8.171895140985324,3.9689299179812454,15.418104388476532
11.5,98.92480728578849,41.053412367332676,4.907584849690653,3.971704514228375,18.226763919684892
11.6,98.91897116219842,41.24749415692709,3.4993285136170353,3.977081351351473,13.086436659473732
11.700000000000001,98.91479617181865,41.43424236902076,0.19531581049753985,3.9841388758052436,13.060086596602899
11.8,98.91365351662144,41.61167210170728,1.3742601888636636,3.9934321193000115,15.344202388434942
11.9,98.9122801384078,41.78720198532398,-0.6448334262221946,4.0017605677711385,16.068088836643255
12.0,98.91205665762632,41.960159808607905,4.632687056166838,4.009342725737555,14.061285365321853
12.1,98.91228567194442,42.12586047633951,-3.2645399384039737,4.01844886062335,14.303294022293302
12.200000000000001,98.9158119665809,42.28305608942517,-2.0865844821100863,4.029275282331283,11.968135910664252
12.3,98.91891112072224,42.43976600943831,-2.0790315352268824,4.038499176327776,17.45767329933817
12.4,98.92324645368245,42.59277003556671,2.3054016851956396,4.047512096768712,18.44593603572859
12.5,98.92874594407049,42.73609545621582,-7.365073584187465,4.05894194608931,13.16001783029538
12.6,98.9349502022144,42.8811852299952,-1.5200669311269357,4.0677106394364735,17.349327452081464
12.700000000000001,98.94133513393241,43.02109687147205,-5.481606303809683,4.077130593037104,18.491369270482213
12.8,98.94969708671242,43.15381925851956,-8.828222370169222,4.087847899882366,18.41477936724792
12.9,98.95807769739633,43.286541512943415,-8.404519341849628,4.096875136065209,10.786998282395993
13.0,98.96760156241766,43.413615950202136,-10.549438608634954,4.106695679820296,12.327734558887142
13.1,98.97467926376264,43.54956947377695,-6.908301321020137,4.111360874043534,13.597795362497614
13.200000000000001,98.98067049869222,43.6875793422196,-3.6096674729745666,4.114167725517699,15.114509506224431
13.3,98.98301746398107,43.83547665629649,-1.1502088475313441,4.112132082740473,17.20395472704361
13.4,98.98576918850927,43.97903063631634,-3.8720010539130483,4.11166726338701,14.796730979770727
13.5,98.98710954481743,44.127253318942934,-2.130287569922994,4.108853499228908,19.64062197292247
13.6,98.98503320556071,44.28519044545792,0.6225884973242337,4.101868217178555,16.292793124102296
13.700000000000001,98.98397892042485,44.43741479471514,0.10600543215133561,4.097576688242064,11.129089244158953
13.8,98.98161050935748,44.593051177277744,1.4930312801527317,4.091761482782823,14.958516765076594
13.9,98.97690339919973,44.754488896670324,2.6219274583559407,4.083720242323753,15.653020275579452
14.0,98.97209838188124,44.91521949404794,5.045878397497734,4.0763338261919015,14.074294311917052
14.1,98.96670148017559,45.07466481586157,3.258971408688091,4.069664590033099,15.651686950767857
14.200000000000001,98.96433297670829,45.22527124690316,7.2244127100299576,4.06676520973487,14.77922594317928
14.3,98.961454602246,45.37449541981502,6.296345936430858,4.06423970604028,15.02973379773697
14.4,98.95788904734016,45.5240872011397,4.055617369708364,4.061407384796901,17.56238692560227
14.5,98.95461358772987,45.671521565388055,1.9158255724488145,4.059197640914345,12.592265318552451
14.6,98.95362536071235,45.81134810866122,1.9949695322760888,4.059820930554709,15.125126898016138
14.700000000000001,98.9540559960764,45.94646697940249,4.719661718569431,4.0617939700132775,14.653360650299911
14.8,98.9545319114707,46.076764544960994,-2.916022022932583,4.065129410070783,16.64713312958188
14.9,98.95630856479308,46.204831867228954,-1.8879716270852906,4.068462437253324,11.671357474432373
15.0,98.95665950686559,46.33411028720096,-7.052657704026141,4.070491073231372,15.512546421875781
15.1,98.95781826540244,46.46283748231388,-3.9366881556875284,4.072117244044023,14.720297132442042
15.200000000000001,98.96007639312431,46.58684541117482,-1.3533680281688278,4.075000961294721,14.85108828385504
15.3,98.95875133073427,46.721802101021254,3.979473233643745,4.072524983975857,14.122077743165384
15.4,98.95737659559373,46.854002184528,4.220206693259173,4.070994700784339,14.930301718834682
15.5,98.95514524275772,46.98692506239758,2.1788511802955863,4.068845080907283,13.569306760850615
15.6,98.95086343310311,47.12604001706641,3.160461723816011,4.063903777519738,18.513372856202558
15.700000000000001,98.94775426006615,47.2587460282679,-0.409706644131624,4.061756954221236,17.04818764180352
15.8,98.94344180633148,47.397279403059635,5.743509877427394,4.056900121031152,15.800577463429862
15.9,98.93668175649609,47.540811282345345,7.8797210973908856,4.049879298862878,15.016245023616657
16.0,98.93127399847981,47.676800383688686,3.8748282539646097,4.0463591677711035,12.806787664186102
16.1,98.92614509895564,47.81173430534062,3.3791600457482964,4.0431050977861105,13.770602669538608
16.2,98.92148547330075,47.944787047476275,5.0902925047399545,4.040450360201435,15.456346055857171
16.3,98.91721413926713,48.07516540076568,5.893105920943932,4.038756452495349,14.079487569856862
16.4,98.91418505679856,48.19944062101997,3.256178210685844,4.039255844128786,14.596171905460642
16.5,98.90971582847975,48.32958250224162,8.101747221067159,4.036735107980988,18.77446675890928
16.6,98.90494685425283,48.45581774472155,1.9491459860962697,4.035671125756654,13.257808568465627
16.7,98.90321259841699,48.574393977200934,4.0670830664807385,4.037390208680026,12.801608951074648
16.8,98.90063730922917,48.69267342736794,0.6463500495268367,4.0385774035565865,14.559616563516284
16.9,98.8991103764553,48.808607796223335,2.9251873400571284,4.040145646664559,14.093847584795988
17.0,98.89745628613572,48.921158057700964,-3.0282888910950363,4.042552888675737,14.815395806021256
17.1,98.89572983643137,49.036997198252486,2.8510086154731735,4.042757992018895,14.527030096691844
17.2,98.89406811454809,49.15054292010708,5.534857540086081,4.043508232501851,13.527993170620443
17.3,98.8932097283365,49.25791464033284,0.16066460345919695,4.046332520905045,13.96445139885951
17.400000000000002,98.89164145559928,49.367947081791556,-1.0418893269199578,4.047279330012755,15.929125334174438
17.5,98.88921697867558,49.480979594807245,1.6633074642127574,4.0464026668025825,17.611475430632886
17.6,98.88816088581977,49.59001171710673,7.922295116797137,4.046801420453601,12.153739740164315
17.7,98.88566331159738,49.69792677779937,0.46421390033142196,4.047248075055125,11.667724753934507
17.8,98.88418235445678,49.80307999948285,-3.048760345660208,4.048429017885525,15.691019276496517
17.900000000000002,98.88493146016319,49.90241097221134,-0.715669221622121,4.051426968668691,15.966507403447729
18.0,98.88473346298365,50.00420838449137,2.8192971914646385,4.052652568693181,17.56415751518032
18.1,98.88464182662543,50.10140315059114,-3.2860681391496076,4.055241993742933,15.788083745768066
18.2,98.88629061897339,50.19444942883729,-3.2271263634832272,4.058885430123996,10.507862350650788
18.3,98.88771640713061,50.286348213008935,-6.197580904588081,4.062295763788623,12.81055385060642
18.400000000000002,98.89083500448716,50.3755203879247,0.6013711044651339,4.0659756795414825,15.61213437833381
18.5,98.8935483591112,50.46170841146538,-2.895102133672786,4.070093205799854,13.722872168489058
18.6,98.89842622614995,50.54221878322228,-1.058057250497876,4.0757991410440075,15.060692715353559
18.7,98.90214521790968,50.623329786070094,-5.939341961361217,4.080384455836605,13.657808041819067
18.8,98.907197446153,50.700700563652006,-7.524978853337451,4.085657413125034,17.635079833582378
18.900000000000002,98.91033889433406,50.7847054223735,-5.114057531934874,4.0872544018553105,15.085461370056649
19.0,98.91652233802813,50.85702768929072,-7.049572051885865,4.093171805968847,12.370689685077139
19.1,98.923423356057,50.926642882259124,-8.39384669433059,4.099369091379895,14.627172346675309
19.2,98.92957743567753,50.99941664662999,-5.474418187239678,4.103302328569789,16.436759576136975
19.3,98.93663247495442,51.06627018638093,-9.725200672936925,4.109050125560594,11.975775365634586
19.400000000000002,98.94419227038686,51.132071867757126,-10.635903252591916,4.114381341755529,16.86286848862016
19.5,98.95261208850214,51.195542914540795,-8.748573479086433,4.119785278041286,15.594817503154959
19.6,98.96072175741698,51.25973661064692,-5.896340877193879,4.124103277794768,15.815326915856
19.7,98.96819331171504,51.32317991382279,-9.412678858620744,4.128039433637871,16.498781268338345
19.8,98.97988611505974,51.37551996237462,-4.901248621726269,4.135865766001408,11.396086684023057
19.900000000000002,98.99062547735798,51.42898136089206,-4.370912110125202,4.142225201135288,14.499830828730103
20.0,98.99999983093625,51.48482752734047,-7.95690327126333,4.146775127794369,14.275563354697434
20.1,99.0094963121038,51.542709400481904,-4.23229247308309,4.149948293331322,16.12951542854829
